"Time (ms)","Recording (a.u.)"
0.000000000E0,1.192368567E-3
2.267659592E-2,1.759735681E-2
4.535319185E-2,3.442884982E-2
6.802978777E-2,5.520203710E-2
9.070638369E-2,7.980787009E-2
1.133829796E-1,1.087778062E-1
1.360595755E-1,1.379534602E-1
1.587361715E-1,1.606193185E-1
1.814127674E-1,1.788678020E-1
2.040893633E-1,1.952660084E-1
2.267659592E-1,2.067406178E-1
2.494425552E-1,2.154127955E-1
2.721191511E-1,2.225174308E-1
2.947957470E-1,2.308634520E-1
3.174723429E-1,2.403953075E-1
3.401489389E-1,2.491705269E-1
3.628255348E-1,2.647098899E-1
3.855021307E-1,2.840525508E-1
4.081787266E-1,2.991466522E-1
4.308553225E-1,3.097237349E-1
4.535319185E-1,3.181067407E-1
4.762085144E-1,3.262051344E-1
4.988851103E-1,3.310103416E-1
5.215617062E-1,3.331106901E-1
5.442383022E-1,3.342399001E-1
5.669148981E-1,3.320732713E-1
5.895914940E-1,3.271047473E-1
6.122680899E-1,3.215438128E-1
6.349446859E-1,3.153381348E-1
6.576212818E-1,3.045955002E-1
6.802978777E-1,2.874170542E-1
7.029744736E-1,2.694267035E-1
7.256510695E-1,2.566545010E-1
7.483276655E-1,2.475083321E-1
7.710042614E-1,2.381016016E-1
7.936808573E-1,2.286419570E-1
8.163574532E-1,2.202820927E-1
8.390340492E-1,2.148009688E-1
8.617106451E-1,2.125968039E-1
8.843872410E-1,2.108624578E-1
9.070638369E-1,2.084880769E-1
9.297404329E-1,2.051490247E-1
9.524170288E-1,2.000515759E-1
9.750936247E-1,1.943352818E-1
9.977702206E-1,1.872348487E-1
1.020446817E0,1.768287420E-1
1.043123412E0,1.663526297E-1
1.065800008E0,1.579812616E-1
1.088476604E0,1.475831866E-1
1.111153200E0,1.364700198E-1
1.133829796E0,1.295342743E-1
1.156506392E0,1.202599332E-1
1.179182988E0,1.064167470E-1
1.201859584E0,9.673024714E-2
1.224536180E0,9.047356993E-2
1.247212776E0,8.054045588E-2
1.269889372E0,6.478577852E-2
1.292565968E0,4.915838316E-2
1.315242564E0,4.154866934E-2
1.337919159E0,3.834674880E-2
1.360595755E0,2.989125997E-2
1.383272351E0,1.869207621E-2
1.405948947E0,1.099815127E-2
1.428625543E0,2.269881545E-3
1.451302139E0,-7.664039265E-3
1.473978735E0,-1.378522813E-2
1.496655331E0,-2.253444493E-2
1.519331927E0,-3.984766081E-2
1.542008523E0,-5.734678730E-2
1.564685119E0,-7.032416761E-2
1.587361715E0,-8.371825516E-2
1.610038311E0,-1.021126509E-1
1.632714906E0,-1.265124828E-1
1.655391502E0,-1.518316269E-1
1.678068098E0,-1.729211211E-1
1.700744694E0,-1.900163293E-1
1.723421290E0,-2.098290324E-1
1.746097886E0,-2.349615395E-1
1.768774482E0,-2.602220774E-1
1.791451078E0,-2.807556391E-1
1.814127674E0,-2.957306504E-1
1.836804270E0,-3.132099807E-1
1.859480866E0,-3.341687918E-1
1.882157462E0,-3.506473899E-1
1.904834058E0,-3.647188544E-1
1.927510653E0,-3.801858127E-1
1.950187249E0,-3.945262432E-1
1.972863845E0,-4.070450664E-1
1.995540441E0,-4.196435809E-1
2.018217037E0,-4.303972721E-1
2.040893633E0,-4.366269410E-1
2.063570229E0,-4.391320348E-1
2.086246825E0,-4.397039413E-1
2.108923421E0,-4.405308962E-1
2.131600017E0,-4.398102760E-1
2.154276613E0,-4.338847995E-1
2.176953209E0,-4.259776473E-1
2.199629805E0,-4.203822315E-1
2.222306400E0,-4.159833789E-1
2.244982996E0,-4.104198217E-1
2.267659592E0,-4.013632536E-1
2.290336188E0,-3.898273706E-1
2.313012784E0,-3.785987794E-1
2.335689380E0,-3.626515865E-1
2.358365976E0,-3.366884291E-1
2.381042572E0,-3.036795855E-1
2.403719168E0,-2.672622502E-1
2.426395764E0,-2.281264663E-1
2.449072360E0,-1.865783036E-1
2.471748956E0,-1.450985372E-1
2.494425552E0,-1.085927486E-1
2.517102147E0,-7.720906287E-2
2.539778743E0,-4.437062889E-2
2.562455339E0,-8.216388524E-3
2.585131935E0,2.304166183E-2
2.607808531E0,4.468601942E-2
2.630485127E0,6.333223730E-2
2.653161723E0,8.350885659E-2
2.675838319E0,1.020177379E-1
2.698514915E0,1.166097522E-1
2.721191511E0,1.316764206E-1
2.743868107E0,1.501585841E-1
2.766544703E0,1.696749479E-1
2.789221299E0,1.898029745E-1
2.811897895E0,2.076385915E-1
2.834574490E0,2.219473422E-1
2.857251086E0,2.334299088E-1
2.879927682E0,2.426365316E-1
2.902604278E0,2.543042004E-1
2.925280874E0,2.672153115E-1
2.947957470E0,2.775853276E-1
2.970634066E0,2.863048315E-1
2.993310662E0,2.977660298E-1
3.015987258E0,3.131538332E-1
3.038663854E0,3.276403546E-1
3.061340450E0,3.354016840E-1
3.084017046E0,3.377347589E-1
3.106693642E0,3.409923315E-1
3.129370237E0,3.402273953E-1
3.152046833E0,3.326959014E-1
3.174723429E0,3.224479556E-1
3.197400025E0,3.106378317E-1
3.220076621E0,2.992773950E-1
3.242753217E0,2.900905609E-1
3.265429813E0,2.842046618E-1
3.288106409E0,2.782312036E-1
3.310783005E0,2.694187760E-1
3.333459601E0,2.615273297E-1
3.356136197E0,2.560868859E-1
3.378812793E0,2.491168231E-1
3.401489389E0,2.389277965E-1
3.424165984E0,2.269962281E-1
3.446842580E0,2.161703408E-1
3.469519176E0,2.072148919E-1
3.492195772E0,1.979310364E-1
3.514872368E0,1.897876412E-1
3.537548964E0,1.827763021E-1
3.560225560E0,1.760064960E-1
3.582902156E0,1.695887893E-1
3.605578752E0,1.616666615E-1
3.628255348E0,1.527344286E-1
3.650931944E0,1.443098336E-1
3.673608540E0,1.370216012E-1
3.696285136E0,1.304701567E-1
3.718961731E0,1.252075434E-1
3.741638327E0,1.212404072E-1
3.764314923E0,1.157164872E-1
3.786991519E0,1.077695861E-1
3.809668115E0,9.864139557E-2
3.832344711E0,8.971676230E-2
3.855021307E0,7.811231911E-2
3.877697903E0,6.266831607E-2
3.900374499E0,4.902677238E-2
3.923051095E0,3.992892802E-2
3.945727691E0,3.312932700E-2
3.968404287E0,2.454651333E-2
3.991080883E0,1.387473382E-2
4.013757478E0,3.750303760E-3
4.036434074E0,-3.837410361E-3
4.059110670E0,-1.106729731E-2
4.081787266E0,-2.417434193E-2
4.104463862E0,-4.187910259E-2
4.127140458E0,-5.632929504E-2
4.149817054E0,-6.660817564E-2
4.172493650E0,-8.171935380E-2
4.195170246E0,-1.039946824E-1
4.217846842E0,-1.264944822E-1
4.240523438E0,-1.479786634E-1
4.263200034E0,-1.709836721E-1
4.285876630E0,-1.945366859E-1
4.308553225E0,-2.174366713E-1
4.331229821E0,-2.413090169E-1
4.353906417E0,-2.647632360E-1
4.376583013E0,-2.858858407E-1
4.399259609E0,-3.056409657E-1
4.421936205E0,-3.260701299E-1
4.444612801E0,-3.494942188E-1
4.467289397E0,-3.713421226E-1
4.489965993E0,-3.864492178E-1
4.512642589E0,-3.982375264E-1
4.535319185E0,-4.107164145E-1
4.557995781E0,-4.231948853E-1
4.580672377E0,-4.338337779E-1
4.603348972E0,-4.409296513E-1
4.626025568E0,-4.453752935E-1
4.648702164E0,-4.512434006E-1
4.671378760E0,-4.593481421E-1
4.694055356E0,-4.649917483E-1
4.716731952E0,-4.644482434E-1
4.739408548E0,-4.612009227E-1
4.762085144E0,-4.575710297E-1
4.784761740E0,-4.488767087E-1
4.807438336E0,-4.340348840E-1
4.830114932E0,-4.160179198E-1
4.852791528E0,-3.950669765E-1
4.875468124E0,-3.728534579E-1
4.898144719E0,-3.507048488E-1
4.920821315E0,-3.274129629E-1
4.943497911E0,-3.034280241E-1
4.966174507E0,-2.778326869E-1
4.988851103E0,-2.508870661E-1
5.011527699E0,-2.232651412E-1
5.034204295E0,-1.920603067E-1
5.056880891E0,-1.582383960E-1
5.079557487E0,-1.222949624E-1
5.102234083E0,-8.143830299E-2
5.124910679E0,-4.206135124E-2
5.147587275E0,-1.043241192E-2
5.170263871E0,1.711466536E-2
5.192940466E0,4.169926420E-2
5.215617062E0,6.446826458E-2
5.238293658E0,8.677102625E-2
5.260970254E0,1.065462902E-1
5.283646850E0,1.262875944E-1
5.306323446E0,1.465044022E-1
5.329000042E0,1.636038721E-1
5.351676638E0,1.773505509E-1
5.374353234E0,1.895175576E-1
5.397029830E0,2.000879198E-1
5.419706426E0,2.085518837E-1
5.442383022E0,2.182362825E-1
5.465059618E0,2.310133576E-1
5.487736213E0,2.434863895E-1
5.510412809E0,2.551348805E-1
5.533089405E0,2.670943737E-1
5.555766001E0,2.783950567E-1
5.578442597E0,2.913066745E-1
5.601119193E0,3.078167439E-1
5.623795789E0,3.222231865E-1
5.646472385E0,3.293876052E-1
5.669148981E0,3.340667486E-1
5.691825577E0,3.382895291E-1
5.714502173E0,3.376323283E-1
5.737178769E0,3.320859075E-1
5.759855365E0,3.240497112E-1
5.782531960E0,3.150324821E-1
5.805208556E0,3.055656552E-1
5.827885152E0,2.960874438E-1
5.850561748E0,2.879477739E-1
5.873238344E0,2.804125845E-1
5.895914940E0,2.697355151E-1
5.918591536E0,2.542999387E-1
5.941268132E0,2.390873730E-1
5.963944728E0,2.288423777E-1
5.986621324E0,2.200044096E-1
6.009297920E0,2.091178000E-1
6.031974516E0,1.997754574E-1
6.054651112E0,1.943884045E-1
6.077327707E0,1.894817650E-1
6.100004303E0,1.822273731E-1
6.122680899E0,1.733520925E-1
6.145357495E0,1.653352678E-1
6.168034091E0,1.606372893E-1
6.190710687E0,1.580009013E-1
6.213387283E0,1.553525627E-1
6.236063879E0,1.511456817E-1
6.258740475E0,1.445359588E-1
6.281417071E0,1.372237951E-1
6.304093667E0,1.297762096E-1
6.326770263E0,1.205890477E-1
6.349446859E0,1.101653874E-1
6.372123454E0,1.014010906E-1
6.394800050E0,9.474894404E-2
6.417476646E0,8.942194283E-2
6.440153242E0,8.255789429E-2
6.462829838E0,7.174467295E-2
6.485506434E0,5.892635137E-2
6.508183030E0,4.659283906E-2
6.530859626E0,4.003383964E-2
6.553536222E0,3.436089307E-2
6.576212818E0,1.968308911E-2
6.598889414E0,7.029792760E-3
6.621566010E0,3.062489908E-3
6.644242606E0,-5.681982730E-3
6.666919201E0,-2.349394187E-2
6.689595797E0,-3.961129487E-2
6.712272393E0,-5.101802945E-2
6.734948989E0,-6.703990698E-2
6.757625585E0,-8.887860179E-2
6.780302181E0,-1.093847752E-1
6.802978777E0,-1.284278929E-1
6.825655373E0,-1.505396962E-1
6.848331969E0,-1.742768288E-1
6.871008565E0,-1.932035238E-1
6.893685161E0,-2.108757794E-1
6.916361757E0,-2.376289219E-1
6.939038353E0,-2.663663328E-1
6.961714948E0,-2.863769829E-1
6.984391544E0,-3.061507344E-1
7.007068140E0,-3.315023184E-1
7.029744736E0,-3.559597433E-1
7.052421332E0,-3.750271201E-1
7.075097928E0,-3.901979327E-1
7.097774524E0,-4.042616189E-1
7.120451120E0,-4.172238111E-1
7.143127716E0,-4.299628735E-1
7.165804312E0,-4.426258206E-1
7.188480908E0,-4.492468238E-1
7.211157504E0,-4.483547509E-1
7.233834100E0,-4.488542676E-1
7.256510695E0,-4.523656368E-1
7.279187291E0,-4.533075690E-1
7.301863887E0,-4.510271549E-1
7.324540483E0,-4.462973475E-1
7.347217079E0,-4.396283031E-1
7.369893675E0,-4.330983162E-1
7.392570271E0,-4.272870421E-1
7.415246867E0,-4.168527722E-1
7.437923463E0,-4.003601074E-1
7.460600059E0,-3.823361397E-1
7.483276655E0,-3.634259105E-1
7.505953251E0,-3.419939578E-1
7.528629847E0,-3.161221147E-1
7.551306442E0,-2.864041030E-1
7.573983038E0,-2.563680410E-1
7.596659634E0,-2.270993590E-1
7.619336230E0,-1.969390512E-1
7.642012826E0,-1.647092253E-1
7.664689422E0,-1.302423030E-1
7.687366018E0,-9.489321709E-2
7.710042614E0,-5.996859074E-2
7.732719210E0,-2.332717739E-2
7.755395806E0,1.376837119E-2
7.778072402E0,4.533591121E-2
7.800748998E0,7.137538493E-2
7.823425594E0,9.278102219E-2
7.846102190E0,1.077535301E-1
7.868778785E0,1.185362488E-1
7.891455381E0,1.277766377E-1
7.914131977E0,1.373923123E-1
7.936808573E0,1.501207352E-1
7.959485169E0,1.656882465E-1
7.982161765E0,1.828842461E-1
8.004838361E0,2.033275366E-1
8.027514957E0,2.245932966E-1
8.050191553E0,2.462009192E-1
8.072868149E0,2.708532810E-1
8.095544745E0,2.929702699E-1
8.118221341E0,3.084657490E-1
8.140897937E0,3.168127537E-1
8.163574532E0,3.197584748E-1
8.186251128E0,3.221277595E-1
8.208927724E0,3.229486346E-1
8.231604320E0,3.225390911E-1
8.254280916E0,3.264187574E-1
8.276957512E0,3.322267830E-1
8.299634108E0,3.343642950E-1
8.322310704E0,3.336651921E-1
8.344987300E0,3.303965032E-1
8.367663896E0,3.240649104E-1
8.390340492E0,3.153855205E-1
8.413017088E0,3.054707646E-1
8.435693684E0,2.951356471E-1
8.458370279E0,2.823253870E-1
8.481046875E0,2.675008774E-1
8.503723471E0,2.542744279E-1
8.526400067E0,2.423641682E-1
8.549076663E0,2.293746769E-1
8.571753259E0,2.148672044E-1
8.594429855E0,2.008692622E-1
8.617106451E0,1.900074780E-1
8.639783047E0,1.821074635E-1
8.662459643E0,1.741838753E-1
8.685136239E0,1.660705358E-1
8.707812835E0,1.621073484E-1
8.730489431E0,1.617191583E-1
8.753166026E0,1.605296433E-1
8.775842622E0,1.575596631E-1
8.798519218E0,1.529931277E-1
8.821195814E0,1.478179991E-1
8.843872410E0,1.430655420E-1
8.866549006E0,1.356434673E-1
8.889225602E0,1.248646677E-1
8.911902198E0,1.162639707E-1
8.934578794E0,1.092130095E-1
8.957255390E0,9.886340797E-2
8.979931986E0,8.711086214E-2
9.002608582E0,7.859370112E-2
9.025285178E0,7.333812118E-2
9.047961773E0,6.955008209E-2
9.070638369E0,6.579284370E-2
9.093314965E0,5.830057710E-2
9.115991561E0,4.891622066E-2
9.138668157E0,4.266745970E-2
9.161344753E0,3.544684127E-2
9.184021349E0,2.275810391E-2
9.206697945E0,7.254773285E-3
9.229374541E0,-7.458145730E-3
9.252051137E0,-1.940907538E-2
9.274727733E0,-3.023331799E-2
9.297404329E0,-4.509424418E-2
9.320080925E0,-6.500007212E-2
9.342757520E0,-8.578452468E-2
9.365434116E0,-1.054220125E-1
9.388110712E0,-1.235794872E-1
9.410787308E0,-1.415332556E-1
9.433463904E0,-1.632942259E-1
9.456140500E0,-1.877688169E-1
9.478817096E0,-2.091611028E-1
9.501493692E0,-2.298112363E-1
9.524170288E0,-2.542194128E-1
9.546846884E0,-2.788550258E-1
9.569523480E0,-3.018277884E-1
9.592200076E0,-3.234927058E-1
9.614876672E0,-3.439269066E-1
9.637553267E0,-3.634238243E-1
9.660229863E0,-3.801229000E-1
9.682906459E0,-3.942744434E-1
9.705583055E0,-4.078784585E-1
9.728259651E0,-4.192168713E-1
9.750936247E0,-4.285461307E-1
9.773612843E0,-4.396559596E-1
9.796289439E0,-4.504483044E-1
9.818966035E0,-4.564130306E-1
9.841642631E0,-4.577384591E-1
9.864319227E0,-4.575560093E-1
9.886995823E0,-4.555061460E-1
9.909672419E0,-4.502983093E-1
9.932349014E0,-4.427634478E-1
9.955025610E0,-4.328365922E-1
9.977702206E0,-4.211164117E-1