"Time (ms)","Recording (a.u.)"
0.000000000E0,7.933814079E-3
2.267659592E-2,2.078905702E-2
4.535319185E-2,3.291872144E-2
6.802978777E-2,4.475551844E-2
9.070638369E-2,5.704592168E-2
1.133829796E-1,6.955231726E-2
1.360595755E-1,8.284027874E-2
1.587361715E-1,9.668934345E-2
1.814127674E-1,1.104366705E-1
2.040893633E-1,1.237346753E-1
2.267659592E-1,1.370267570E-1
2.494425552E-1,1.504586935E-1
2.721191511E-1,1.630648971E-1
2.947957470E-1,1.747436374E-1
3.174723429E-1,1.858929396E-1
3.401489389E-1,1.964275241E-1
3.628255348E-1,2.058682740E-1
3.855021307E-1,2.139876634E-1
4.081787266E-1,2.210783511E-1
4.308553225E-1,2.270620167E-1
4.535319185E-1,2.315962762E-1
4.762085144E-1,2.347181141E-1
4.988851103E-1,2.369917482E-1
5.215617062E-1,2.386329472E-1
5.442383022E-1,2.390056551E-1
5.669148981E-1,2.386412174E-1
5.895914940E-1,2.388512194E-1
6.122680899E-1,2.397046536E-1
6.349446859E-1,2.402489930E-1
6.576212818E-1,2.399940342E-1
6.802978777E-1,2.384539545E-1
7.029744736E-1,2.353293449E-1
7.256510695E-1,2.313423604E-1
7.483276655E-1,2.260486335E-1
7.710042614E-1,2.185364068E-1
7.936808573E-1,2.100621164E-1
8.163574532E-1,2.017038465E-1
8.390340492E-1,1.913582087E-1
8.617106451E-1,1.783871651E-1
8.843872410E-1,1.660346538E-1
9.070638369E-1,1.554851234E-1
9.297404329E-1,1.444598734E-1
9.524170288E-1,1.323059350E-1
9.750936247E-1,1.201926172E-1
9.977702206E-1,1.086136550E-1
1.020446817E0,9.667783976E-2
1.043123412E0,8.297598362E-2
1.065800008E0,6.830191612E-2
1.088476604E0,5.415082350E-2
1.111153200E0,4.008026049E-2
1.133829796E0,2.476277947E-2
1.156506392E0,9.122638032E-3
1.179182988E0,-5.661059171E-3
1.201859584E0,-2.088744193E-2
1.224536180E0,-3.704021871E-2
1.247212776E0,-5.293451250E-2
1.269889372E0,-6.804326177E-2
1.292565968E0,-8.273760974E-2
1.315242564E0,-9.710554779E-2
1.337919159E0,-1.112534702E-1
1.360595755E0,-1.252143383E-1
1.383272351E0,-1.391213089E-1
1.405948947E0,-1.535708308E-1
1.428625543E0,-1.686488539E-1
1.451302139E0,-1.834490448E-1
1.473978735E0,-1.979577094E-1
1.496655331E0,-2.130310684E-1
1.519331927E0,-2.281148285E-1
1.542008523E0,-2.421482652E-1
1.564685119E0,-2.546017170E-1
1.587361715E0,-2.664311528E-1
1.610038311E0,-2.776176333E-1
1.632714906E0,-2.872851193E-1
1.655391502E0,-2.961561680E-1
1.678068098E0,-3.039470911E-1
1.700744694E0,-3.106408715E-1
1.723421290E0,-3.163084984E-1
1.746097886E0,-3.208801150E-1
1.768774482E0,-3.244311213E-1
1.791451078E0,-3.271644115E-1
1.814127674E0,-3.297856450E-1
1.836804270E0,-3.314920962E-1
1.859480866E0,-3.324179947E-1
1.882157462E0,-3.324345350E-1
1.904834058E0,-3.312755227E-1
1.927510653E0,-3.302269876E-1
1.950187249E0,-3.291563988E-1
1.972863845E0,-3.270774186E-1
1.995540441E0,-3.230751157E-1
2.018217037E0,-3.174173534E-1
2.040893633E0,-3.113873005E-1
2.063570229E0,-3.051795065E-1
2.086246825E0,-2.979162931E-1
2.108923421E0,-2.890246809E-1
2.131600017E0,-2.790730298E-1
2.154276613E0,-2.681265473E-1
2.176953209E0,-2.560122609E-1
2.199629805E0,-2.430760264E-1
2.222306400E0,-2.296570241E-1
2.244982996E0,-2.160851657E-1
2.267659592E0,-2.018966675E-1
2.290336188E0,-1.875350028E-1
2.313012784E0,-1.738499701E-1
2.335689380E0,-1.607009172E-1
2.358365976E0,-1.475330591E-1
2.381042572E0,-1.345447302E-1
2.403719168E0,-1.225623488E-1
2.426395764E0,-1.111195982E-1
2.449072360E0,-9.984993190E-2
2.471748956E0,-8.835975081E-2
2.494425552E0,-7.672277093E-2
2.517102147E0,-6.557656080E-2
2.539778743E0,-5.427075922E-2
2.562455339E0,-4.286702722E-2
2.585131935E0,-3.151396662E-2
2.607808531E0,-1.988567784E-2
2.630485127E0,-8.271162398E-3
2.653161723E0,3.964648582E-3
2.675838319E0,1.652492583E-2
2.698514915E0,2.942714840E-2
2.721191511E0,4.338421673E-2
2.743868107E0,5.775012448E-2
2.766544703E0,7.205677032E-2
2.789221299E0,8.603158593E-2
2.811897895E0,1.002682447E-1
2.834574490E0,1.143076643E-1
2.857251086E0,1.284183264E-1
2.879927682E0,1.427945346E-1
2.902604278E0,1.563167423E-1
2.925280874E0,1.688636541E-1
2.947957470E0,1.794855595E-1
2.970634066E0,1.886371374E-1
2.993310662E0,1.970263720E-1
3.015987258E0,2.046386302E-1
3.038663854E0,2.114758343E-1
3.061340450E0,2.176489979E-1
3.084017046E0,2.233804464E-1
3.106693642E0,2.284580320E-1
3.129370237E0,2.335892022E-1
3.152046833E0,2.390491366E-1
3.174723429E0,2.447386086E-1
3.197400025E0,2.506484687E-1
3.220076621E0,2.560425997E-1
3.242753217E0,2.607472539E-1
3.265429813E0,2.645065188E-1
3.288106409E0,2.663330436E-1
3.310783005E0,2.670621872E-1
3.333459601E0,2.653894424E-1
3.356136197E0,2.594839334E-1
3.378812793E0,2.515307367E-1
3.401489389E0,2.418462932E-1
3.424165984E0,2.314712107E-1
3.446842580E0,2.215840071E-1
3.469519176E0,2.099732161E-1
3.492195772E0,1.975937188E-1
3.514872368E0,1.867613345E-1
3.537548964E0,1.764898449E-1
3.560225560E0,1.656232774E-1
3.582902156E0,1.545025855E-1
3.605578752E0,1.437820196E-1
3.628255348E0,1.334752887E-1
3.650931944E0,1.219919473E-1
3.673608540E0,1.097618416E-1
3.696285136E0,9.793724120E-2
3.718961731E0,8.525311947E-2
3.741638327E0,7.163864374E-2
3.764314923E0,5.658674240E-2
3.786991519E0,4.077846184E-2
3.809668115E0,2.554144710E-2
3.832344711E0,9.813124314E-3
3.855021307E0,-6.125437096E-3
3.877697903E0,-2.201881632E-2
3.900374499E0,-3.780699521E-2
3.923051095E0,-5.327769369E-2
3.945727691E0,-6.904891133E-2
3.968404287E0,-8.465906233E-2
3.991080883E0,-9.934951365E-2
4.013757478E0,-1.139293462E-1
4.036434074E0,-1.293534338E-1
4.059110670E0,-1.449864209E-1
4.081787266E0,-1.603398621E-1
4.104463862E0,-1.751274765E-1
4.127140458E0,-1.892053485E-1
4.149817054E0,-2.028247714E-1
4.172493650E0,-2.159270644E-1
4.195170246E0,-2.288914025E-1
4.217846842E0,-2.418695688E-1
4.240523438E0,-2.545092404E-1
4.263200034E0,-2.659911215E-1
4.285876630E0,-2.761610150E-1
4.308553225E0,-2.854986787E-1
4.331229821E0,-2.936868668E-1
4.353906417E0,-3.010054827E-1
4.376583013E0,-3.076306283E-1
4.399259609E0,-3.133389354E-1
4.421936205E0,-3.176645637E-1
4.444612801E0,-3.202916384E-1
4.467289397E0,-3.222151399E-1
4.489965993E0,-3.235764503E-1
4.512642589E0,-3.240787983E-1
4.535319185E0,-3.243160248E-1
4.557995781E0,-3.245152831E-1
4.580672377E0,-3.240323663E-1
4.603348972E0,-3.223067522E-1
4.626025568E0,-3.189936280E-1
4.648702164E0,-3.141234815E-1
4.671378760E0,-3.084374070E-1
4.694055356E0,-3.023576140E-1
4.716731952E0,-2.958553135E-1
4.739408548E0,-2.883812785E-1
4.762085144E0,-2.798756957E-1
4.784761740E0,-2.705273330E-1
4.807438336E0,-2.604064941E-1
4.830114932E0,-2.495584190E-1
4.852791528E0,-2.380575836E-1
4.875468124E0,-2.267017215E-1
4.898144719E0,-2.152319849E-1
4.920821315E0,-2.034000009E-1
4.943497911E0,-1.916676909E-1
4.966174507E0,-1.799946427E-1
4.988851103E0,-1.679975092E-1
5.011527699E0,-1.551245451E-1
5.034204295E0,-1.412684768E-1
5.056880891E0,-1.274979711E-1
5.079557487E0,-1.146950200E-1
5.102234083E0,-1.024402231E-1
5.124910679E0,-9.052512795E-2
5.147587275E0,-7.891444117E-2
5.170263871E0,-6.778781116E-2
5.192940466E0,-5.694691092E-2
5.215617062E0,-4.619166628E-2
5.238293658E0,-3.501216322E-2
5.260970254E0,-2.299993858E-2
5.283646850E0,-1.076190360E-2
5.306323446E0,1.888070721E-3
5.329000042E0,1.564938575E-2
5.351676638E0,3.045953438E-2
5.374353234E0,4.520292580E-2
5.397029830E0,6.022011489E-2
5.419706426E0,7.557417452E-2
5.442383022E0,9.063816071E-2
5.465059618E0,1.049511880E-1
5.487736213E0,1.182944104E-1
5.510412809E0,1.314214915E-1
5.533089405E0,1.440654099E-1
5.555766001E0,1.562269479E-1
5.578442597E0,1.678472161E-1
5.601119193E0,1.795523167E-1
5.623795789E0,1.911880970E-1
5.646472385E0,2.020765543E-1
5.669148981E0,2.126490772E-1
5.691825577E0,2.227311432E-1
5.714502173E0,2.319092453E-1
5.737178769E0,2.393323183E-1
5.759855365E0,2.456577569E-1
5.782531960E0,2.509660721E-1
5.805208556E0,2.550723553E-1
5.827885152E0,2.585285008E-1
5.850561748E0,2.610898018E-1
5.873238344E0,2.629746795E-1
5.895914940E0,2.648127079E-1
5.918591536E0,2.681422234E-1
5.941268132E0,2.722977996E-1
5.963944728E0,2.748509049E-1
5.986621324E0,2.743912637E-1
6.009297920E0,2.714010477E-1
6.031974516E0,2.673053145E-1
6.054651112E0,2.608359456E-1
6.077327707E0,2.518295348E-1
6.100004303E0,2.418383360E-1
6.122680899E0,2.311039269E-1
6.145357495E0,2.195621580E-1
6.168034091E0,2.075577974E-1
6.190710687E0,1.953774095E-1
6.213387283E0,1.824596077E-1
6.236063879E0,1.693582237E-1
6.258740475E0,1.566829085E-1
6.281417071E0,1.447364837E-1
6.304093667E0,1.338759959E-1
6.326770263E0,1.235388070E-1
6.349446859E0,1.133322492E-1
6.372123454E0,1.026808172E-1
6.394800050E0,9.138596058E-2
6.417476646E0,7.894802094E-2
6.440153242E0,6.562935561E-2
6.462829838E0,5.234242231E-2
6.485506434E0,3.805215657E-2
6.508183030E0,2.156343311E-2
6.530859626E0,3.589500207E-3
6.553536222E0,-1.364491135E-2
6.576212818E0,-3.056302480E-2
6.598889414E0,-4.829768091E-2
6.621566010E0,-6.607164443E-2
6.644242606E0,-8.374412358E-2
6.666919201E0,-1.006946117E-1
6.689595797E0,-1.170097440E-1
6.712272393E0,-1.327250004E-1
6.734948989E0,-1.479145437E-1
6.757625585E0,-1.629773080E-1
6.780302181E0,-1.773236990E-1
6.802978777E0,-1.910841763E-1
6.825655373E0,-2.038710713E-1
6.848331969E0,-2.156943381E-1
6.871008565E0,-2.273088694E-1
6.893685161E0,-2.383741736E-1
6.916361757E0,-2.482986301E-1
6.939038353E0,-2.577260137E-1
6.961714948E0,-2.667666674E-1
6.984391544E0,-2.754458785E-1
7.007068140E0,-2.836058140E-1
7.029744736E0,-2.899978161E-1
7.052421332E0,-2.953711152E-1
7.075097928E0,-3.000888228E-1
7.097774524E0,-3.036623001E-1
7.120451120E0,-3.062164485E-1
7.143127716E0,-3.085985780E-1
7.165804312E0,-3.102380633E-1
7.188480908E0,-3.097136617E-1
7.211157504E0,-3.083441257E-1
7.233834100E0,-3.074434996E-1
7.256510695E0,-3.068444729E-1
7.279187291E0,-3.050701320E-1
7.301863887E0,-3.014528155E-1
7.324540483E0,-2.968881130E-1
7.347217079E0,-2.924584150E-1
7.369893675E0,-2.878276706E-1
7.392570271E0,-2.820643783E-1
7.415246867E0,-2.755265832E-1
7.437923463E0,-2.682691514E-1
7.460600059E0,-2.600627542E-1
7.483276655E0,-2.504622638E-1
7.505953251E0,-2.396988571E-1
7.528629847E0,-2.276465148E-1
7.551306442E0,-2.142113745E-1
7.573983038E0,-2.006077766E-1
7.596659634E0,-1.872951239E-1
7.619336230E0,-1.743987799E-1
7.642012826E0,-1.614887863E-1
7.664689422E0,-1.483312249E-1
7.687366018E0,-1.356054544E-1
7.710042614E0,-1.234903783E-1
7.732719210E0,-1.117336527E-1
7.755395806E0,-9.995734692E-2
7.778072402E0,-8.803018928E-2
7.800748998E0,-7.535829395E-2
7.823425594E0,-6.213201210E-2
7.846102190E0,-4.923565313E-2
7.868778785E0,-3.695017472E-2
7.891455381E0,-2.489458583E-2
7.914131977E0,-1.187616400E-2
7.936808573E0,1.617300091E-3
7.959485169E0,1.549988799E-2
7.982161765E0,2.966853976E-2
8.004838361E0,4.424019903E-2
8.027514957E0,5.937352031E-2
8.050191553E0,7.388813049E-2
8.072868149E0,8.825727552E-2
8.095544745E0,1.023588628E-1
8.118221341E0,1.168221831E-1
8.140897937E0,1.313991100E-1
8.163574532E0,1.449446976E-1
8.186251128E0,1.576356292E-1
8.208927724E0,1.694612801E-1
8.231604320E0,1.808710694E-1
8.254280916E0,1.912060082E-1
8.276957512E0,2.000267655E-1
8.299634108E0,2.076942623E-1
8.322310704E0,2.158793658E-1
8.344987300E0,2.256153226E-1
8.367663896E0,2.357054949E-1
8.390340492E0,2.452521473E-1
8.413017088E0,2.537817359E-1
8.435693684E0,2.620717883E-1
8.458370279E0,2.703055143E-1
8.481046875E0,2.774837315E-1
8.503723471E0,2.833894193E-1
8.526400067E0,2.879091799E-1
8.549076663E0,2.911614776E-1
8.571753259E0,2.927348614E-1
8.594429855E0,2.925908566E-1
8.617106451E0,2.918543816E-1
8.639783047E0,2.900028229E-1
8.662459643E0,2.866321802E-1
8.685136239E0,2.828459144E-1
8.707812835E0,2.783401310E-1
8.730489431E0,2.720628977E-1
8.753166026E0,2.648652196E-1
8.775842622E0,2.573072910E-1
8.798519218E0,2.479379177E-1
8.821195814E0,2.366178036E-1
8.843872410E0,2.245675474E-1
8.866549006E0,2.123877257E-1
8.889225602E0,2.003374398E-1
8.911902198E0,1.880105883E-1
8.934578794E0,1.759098768E-1
8.957255390E0,1.650564671E-1
8.979931986E0,1.545000523E-1
9.002608582E0,1.433815807E-1
9.025285178E0,1.320112050E-1
9.047961773E0,1.206292510E-1
9.070638369E0,1.080913246E-1
9.093314965E0,9.345680475E-2
9.115991561E0,7.770143449E-2
9.138668157E0,6.173647195E-2
9.161344753E0,4.565700889E-2
9.184021349E0,2.922219038E-2
9.206697945E0,1.263938658E-2
9.229374541E0,-4.415446427E-3
9.252051137E0,-2.213358134E-2
9.274727733E0,-4.004557058E-2
9.297404329E0,-5.796964467E-2
9.320080925E0,-7.483733445E-2
9.342757520E0,-9.086808562E-2
9.365434116E0,-1.067680269E-1
9.388110712E0,-1.224872023E-1
9.410787308E0,-1.380330920E-1
9.433463904E0,-1.526049823E-1
9.456140500E0,-1.663318425E-1
9.478817096E0,-1.792410314E-1
9.501493692E0,-1.912746727E-1
9.524170288E0,-2.022847235E-1
9.546846884E0,-2.120750099E-1
9.569523480E0,-2.212306559E-1
9.592200076E0,-2.291218191E-1
9.614876672E0,-2.361788750E-1
9.637553267E0,-2.432601452E-1
9.660229863E0,-2.500103414E-1
9.682906459E0,-2.564869523E-1
9.705583055E0,-2.628025413E-1
9.728259651E0,-2.688592374E-1
9.750936247E0,-2.742084563E-1
9.773612843E0,-2.793343067E-1
9.796289439E0,-2.847335935E-1
9.818966035E0,-2.894300520E-1
9.841642631E0,-2.926908731E-1
9.864319227E0,-2.944887280E-1
9.886995823E0,-2.951775193E-1
9.909672419E0,-2.945974469E-1
9.932349014E0,-2.926067114E-1
9.955025610E0,-2.892492414E-1
9.977702206E0,-2.842721939E-1