"Time (ms)","Recording (a.u.)"
0.000000000E0,2.105710842E-2
2.083412250E-2,4.133388028E-2
4.166824501E-2,6.011347473E-2
6.250236751E-2,7.754248381E-2
8.333649002E-2,9.455469996E-2
1.041706125E-1,1.105743721E-1
1.250047350E-1,1.247657835E-1
1.458388575E-1,1.379594505E-1
1.666729800E-1,1.507596672E-1
1.875071025E-1,1.632874310E-1
2.083412250E-1,1.750838757E-1
2.291753476E-1,1.863328218E-1
2.500094701E-1,1.978798211E-1
2.708435926E-1,2.097759843E-1
2.916777151E-1,2.229194045E-1
3.125118376E-1,2.367509007E-1
3.333459601E-1,2.493665665E-1
3.541800826E-1,2.619218230E-1
3.750142051E-1,2.748640776E-1
3.958483276E-1,2.856144309E-1
4.166824501E-1,2.934086919E-1
4.375165726E-1,3.000047207E-1
4.583506951E-1,3.065996766E-1
4.791848176E-1,3.131497204E-1
5.000189401E-1,3.188076019E-1
5.208530626E-1,3.231513798E-1
5.416871851E-1,3.270787597E-1
5.625213076E-1,3.301849961E-1
5.833554301E-1,3.308297098E-1
6.041895526E-1,3.291508555E-1
6.250236751E-1,3.269206882E-1
6.458577976E-1,3.248924911E-1
6.666919201E-1,3.204427063E-1
6.875260427E-1,3.121423125E-1
7.083601652E-1,3.029798269E-1
7.291942877E-1,2.945220172E-1
7.500284102E-1,2.856005430E-1
7.708625327E-1,2.751879096E-1
7.916966552E-1,2.634007931E-1
8.125307777E-1,2.508475184E-1
8.333649002E-1,2.369642556E-1
8.541990227E-1,2.220780551E-1
8.750331452E-1,2.071077824E-1
8.958672677E-1,1.919260621E-1
9.167013902E-1,1.773230135E-1
9.375355127E-1,1.634715199E-1
9.583696352E-1,1.496766657E-1
9.792037577E-1,1.365521699E-1
1.000037880E0,1.246745288E-1
1.020872003E0,1.138516515E-1
1.041706125E0,1.036265194E-1
1.062540248E0,9.433345497E-2
1.083374370E0,8.692567050E-2
1.104208493E0,8.021961153E-2
1.125042615E0,7.258784771E-2
1.145876738E0,6.546106935E-2
1.166710860E0,6.050501019E-2
1.187544983E0,5.665444583E-2
1.208379105E0,5.207163841E-2
1.229213228E0,4.636731744E-2
1.250047350E0,3.995969892E-2
1.270881473E0,3.227611259E-2
1.291715595E0,2.295942977E-2
1.312549718E0,1.324346848E-2
1.333383840E0,4.056021105E-3
1.354217963E0,-4.866194446E-3
1.375052085E0,-1.487721130E-2
1.395886208E0,-2.708994970E-2
1.416720330E0,-3.981427476E-2
1.437554453E0,-5.120963603E-2
1.458388575E0,-6.254926324E-2
1.479222698E0,-7.511083782E-2
1.500056820E0,-8.831439912E-2
1.520890943E0,-1.016091555E-1
1.541725065E0,-1.147674620E-1
1.562559188E0,-1.276400983E-1
1.583393310E0,-1.402064711E-1
1.604227433E0,-1.524941921E-1
1.625061555E0,-1.648966968E-1
1.645895678E0,-1.777140498E-1
1.666729800E0,-1.905874908E-1
1.687563923E0,-2.028252482E-1
1.708398045E0,-2.142879367E-1
1.729232168E0,-2.257788479E-1
1.750066290E0,-2.375176847E-1
1.770900413E0,-2.484424710E-1
1.791734535E0,-2.585827708E-1
1.812568658E0,-2.686902285E-1
1.833402780E0,-2.777476907E-1
1.854236903E0,-2.854753733E-1
1.875071025E0,-2.929417789E-1
1.895905148E0,-2.996533513E-1
1.916739270E0,-3.050017655E-1
1.937573393E0,-3.089232445E-1
1.958407515E0,-3.112803102E-1
1.979241638E0,-3.127565980E-1
2.000075760E0,-3.135924041E-1
2.020909883E0,-3.133577704E-1
2.041744005E0,-3.120067716E-1
2.062578128E0,-3.098669648E-1
2.083412250E0,-3.073185682E-1
2.104246373E0,-3.041176498E-1
2.125080495E0,-3.001090884E-1
2.145914618E0,-2.954801321E-1
2.166748740E0,-2.905577421E-1
2.187582863E0,-2.859063745E-1
2.208416985E0,-2.808611989E-1
2.229251108E0,-2.747236788E-1
2.250085231E0,-2.680048347E-1
2.270919353E0,-2.608767748E-1
2.291753476E0,-2.533327639E-1
2.312587598E0,-2.449619174E-1
2.333421721E0,-2.358045578E-1
2.354255843E0,-2.267448008E-1
2.375089966E0,-2.168248147E-1
2.395924088E0,-2.049655914E-1
2.416758211E0,-1.918041706E-1
2.437592333E0,-1.776789129E-1
2.458426456E0,-1.618143320E-1
2.479260578E0,-1.433420181E-1
2.500094701E0,-1.234578416E-1
2.520928823E0,-1.035671756E-1
2.541762946E0,-8.317088336E-2
2.562597068E0,-6.217015162E-2
2.583431191E0,-4.058937728E-2
2.604265313E0,-1.820913702E-2
2.625099436E0,4.083605949E-3
2.645933558E0,2.500020340E-2
2.666767681E0,4.421824217E-2
2.687601803E0,6.234657764E-2
2.708435926E0,7.938560843E-2
2.729270048E0,9.509657323E-2
2.750104171E0,1.098786443E-1
2.770938293E0,1.239472777E-1
2.791772416E0,1.375984550E-1
2.812606538E0,1.514127851E-1
2.833440661E0,1.651474833E-1
2.854274783E0,1.781607866E-1
2.875108906E0,1.909647733E-1
2.895943028E0,2.041651607E-1
2.916777151E0,2.174700499E-1
2.937611273E0,2.307190299E-1
2.958445396E0,2.438535988E-1
2.979279518E0,2.563726008E-1
3.000113641E0,2.676495910E-1
3.020947763E0,2.777895629E-1
3.041781886E0,2.873322368E-1
3.062616008E0,2.963167429E-1
3.083450131E0,3.038363457E-1
3.104284253E0,3.092756271E-1
3.125118376E0,3.136267960E-1
3.145952498E0,3.171904087E-1
3.166786621E0,3.198510408E-1
3.187620743E0,3.222497702E-1
3.208454866E0,3.245222270E-1
3.229288988E0,3.267748952E-1
3.250123111E0,3.276667595E-1
3.270957233E0,3.256493807E-1
3.291791356E0,3.214164972E-1
3.312625478E0,3.156418800E-1
3.333459601E0,3.084057570E-1
3.354293723E0,2.992037535E-1
3.375127846E0,2.879409790E-1
3.395961968E0,2.762265801E-1
3.416796091E0,2.646741569E-1
3.437630213E0,2.519428432E-1
3.458464336E0,2.383007258E-1
3.479298458E0,2.259969264E-1
3.500132581E0,2.146805674E-1
3.520966703E0,2.025539130E-1
3.541800826E0,1.896230727E-1
3.562634948E0,1.761407405E-1
3.583469071E0,1.627255082E-1
3.604303193E0,1.503413022E-1
3.625137316E0,1.390773207E-1
3.645971438E0,1.283168495E-1
3.666805561E0,1.178441495E-1
3.687639683E0,1.081098244E-1
3.708473806E0,9.849512577E-2
3.729307928E0,8.877013624E-2
3.750142051E0,8.033941686E-2
3.770976173E0,7.331597060E-2
3.791810296E0,6.651509553E-2
3.812644418E0,5.934793502E-2
3.833478541E0,5.179934204E-2
3.854312663E0,4.483793676E-2
3.875146786E0,3.939499706E-2
3.895980908E0,3.459075838E-2
3.916815031E0,2.932758071E-2
3.937649153E0,2.303280309E-2
3.958483276E0,1.521341875E-2
3.979317398E0,5.910302047E-3
4.000151521E0,-4.619660322E-3
4.020985643E0,-1.540439669E-2
4.041819766E0,-2.578713745E-2
4.062653888E0,-3.662224859E-2
4.083488011E0,-4.888516665E-2
4.104322133E0,-6.234097853E-2
4.125156256E0,-7.565660775E-2
4.145990378E0,-8.874779195E-2
4.166824501E0,-1.021788567E-1
4.187658623E0,-1.156609058E-1
4.208492746E0,-1.292174011E-1
4.229326868E0,-1.424191296E-1
4.250160991E0,-1.550984681E-1
4.270995113E0,-1.676230729E-1
4.291829236E0,-1.794116199E-1
4.312663358E0,-1.903963834E-1
4.333497481E0,-2.017553002E-1
4.354331603E0,-2.143062502E-1
4.375165726E0,-2.268461585E-1
4.395999848E0,-2.380003035E-1
4.416833971E0,-2.482990175E-1
4.437668093E0,-2.581247091E-1
4.458502216E0,-2.675115466E-1
4.479336338E0,-2.763997912E-1
4.500170461E0,-2.842629254E-1
4.521004584E0,-2.916338444E-1
4.541838706E0,-2.985135615E-1
4.562672829E0,-3.034321070E-1
4.583506951E0,-3.068916202E-1
4.604341074E0,-3.106982112E-1
4.625175196E0,-3.141317666E-1
4.646009319E0,-3.153705001E-1
4.666843441E0,-3.146656752E-1
4.687677564E0,-3.134660721E-1
4.708511686E0,-3.122685552E-1
4.729345809E0,-3.104742169E-1
4.750179931E0,-3.078897595E-1
4.771014054E0,-3.048750162E-1
4.791848176E0,-3.012983799E-1
4.812682299E0,-2.972519696E-1
4.833516421E0,-2.928487957E-1
4.854350544E0,-2.875869274E-1
4.875184666E0,-2.817359567E-1
4.896018789E0,-2.753233314E-1
4.916852911E0,-2.673262954E-1
4.937687034E0,-2.581905127E-1
4.958521156E0,-2.492090911E-1
4.979355279E0,-2.402449846E-1
5.000189401E0,-2.307382822E-1
5.021023524E0,-2.203866988E-1
5.041857646E0,-2.085096836E-1
5.062691769E0,-1.949828267E-1
5.083525891E0,-1.801125556E-1
5.104360014E0,-1.629810333E-1
5.125194136E0,-1.434031725E-1
5.146028259E0,-1.232952774E-1
5.166862381E0,-1.030434817E-1
5.187696504E0,-8.127781004E-2
5.208530626E0,-5.864759162E-2
5.229364749E0,-3.683593124E-2
5.250198871E0,-1.546927821E-2
5.271032994E0,6.461087149E-3
5.291867116E0,2.842168882E-2
5.312701239E0,4.926379025E-2
5.333535361E0,6.867673993E-2
5.354369484E0,8.745995909E-2
5.375203606E0,1.054555029E-1
5.396037729E0,1.209082752E-1
5.416871851E0,1.336816400E-1
5.437705974E0,1.452871561E-1
5.458540096E0,1.569990814E-1
5.479374219E0,1.691162288E-1
5.500208341E0,1.809500456E-1
5.521042464E0,1.927984506E-1
5.541876586E0,2.051233053E-1
5.562710709E0,2.179188579E-1
5.583544831E0,2.313077450E-1
5.604378954E0,2.448197901E-1
5.625213076E0,2.587938309E-1
5.646047199E0,2.724543810E-1
5.666881321E0,2.836668491E-1
5.687715444E0,2.930741012E-1
5.708549566E0,3.024233580E-1
5.729383689E0,3.119461238E-1
5.750217811E0,3.201977611E-1
5.771051934E0,3.255756795E-1
5.791886056E0,3.282675147E-1
5.812720179E0,3.291061223E-1
5.833554301E0,3.288140893E-1
5.854388424E0,3.281821609E-1
5.875222546E0,3.277901411E-1
5.896056669E0,3.270294070E-1
5.916890791E0,3.245350122E-1
5.937724914E0,3.200463951E-1
5.958559036E0,3.137655258E-1
5.979393159E0,3.062216043E-1
6.000227281E0,2.977896035E-1
6.021061404E0,2.876470685E-1
6.041895526E0,2.757385969E-1
6.062729649E0,2.631132007E-1
6.083563771E0,2.501262128E-1
6.104397894E0,2.363943756E-1
6.125232016E0,2.225679755E-1
6.146066139E0,2.096857429E-1
6.166900261E0,1.970579326E-1
6.187734384E0,1.846678257E-1
6.208568506E0,1.734136641E-1
6.229402629E0,1.623624116E-1
6.250236751E0,1.503847688E-1
6.271070874E0,1.378902495E-1
6.291904996E0,1.260470748E-1
6.312739119E0,1.154889092E-1
6.333573241E0,1.064237803E-1
6.354407364E0,9.833826125E-2
6.375241486E0,8.964741230E-2
6.396075609E0,8.057619631E-2
6.416909731E0,7.232843339E-2
6.437743854E0,6.511077285E-2
6.458577976E0,5.906392634E-2
6.479412099E0,5.319337174E-2
6.500246221E0,4.664474353E-2
6.521080344E0,3.992602602E-2
6.541914466E0,3.363248333E-2
6.562748589E0,2.821861580E-2
6.583582711E0,2.292661369E-2
6.604416834E0,1.602749154E-2
6.625250956E0,6.755631417E-3
6.646085079E0,-3.887710162E-3
6.666919201E0,-1.522665285E-2
6.687753324E0,-2.808304131E-2
6.708587446E0,-4.158255085E-2
6.729421569E0,-5.417444557E-2
6.750255692E0,-6.681820750E-2
6.771089814E0,-8.053849638E-2
6.791923937E0,-9.431679547E-2
6.812758059E0,-1.065147072E-1
6.833592182E0,-1.171209663E-1
6.854426304E0,-1.279758513E-1
6.875260427E0,-1.405339688E-1
6.896094549E0,-1.542699635E-1
6.916928672E0,-1.673157960E-1
6.937762794E0,-1.795521975E-1
6.958596917E0,-1.928377748E-1
6.979431039E0,-2.070661783E-1
7.000265162E0,-2.202937752E-1
7.021099284E0,-2.316255569E-1
7.041933407E0,-2.421975136E-1
7.062767529E0,-2.534216046E-1
7.083601652E0,-2.639973462E-1
7.104435774E0,-2.724760175E-1
7.125269897E0,-2.801767290E-1
7.146104019E0,-2.885484099E-1
7.166938142E0,-2.973023653E-1
7.187772264E0,-3.046103716E-1
7.208606387E0,-3.093200624E-1
7.229440509E0,-3.127418160E-1
7.250274632E0,-3.159882426E-1
7.271108754E0,-3.181268573E-1
7.291942877E0,-3.184233904E-1
7.312776999E0,-3.178650439E-1
7.333611122E0,-3.172762990E-1
7.354445244E0,-3.161605000E-1
7.375279367E0,-3.140863180E-1
7.396113489E0,-3.114798367E-1
7.416947612E0,-3.088585734E-1
7.437781734E0,-3.059164286E-1
7.458615857E0,-3.020766675E-1
7.479449979E0,-2.969997227E-1
7.500284102E0,-2.905162573E-1
7.521118224E0,-2.833763957E-1
7.541952347E0,-2.762994170E-1
7.562786469E0,-2.688765228E-1
7.583620592E0,-2.606042027E-1
7.604454714E0,-2.513260841E-1
7.625288837E0,-2.415452600E-1
7.646122959E0,-2.314430773E-1
7.666957082E0,-2.199168503E-1
7.687791204E0,-2.066576779E-1
7.708625327E0,-1.917588115E-1
7.729459449E0,-1.750542521E-1
7.750293572E0,-1.571851373E-1
7.771127694E0,-1.379201561E-1
7.791961817E0,-1.169021353E-1
7.812795939E0,-9.517091513E-2
7.833630062E0,-7.383872569E-2
7.854464184E0,-5.296063423E-2
7.875298307E0,-3.120364249E-2
7.896132429E0,-8.833984844E-3
7.916966552E0,1.236419380E-2
7.937800674E0,3.259615228E-2
7.958634797E0,5.262610316E-2
7.979468919E0,7.249456644E-2
8.000303042E0,9.127937257E-2
8.021137164E0,1.077963188E-1
8.041971287E0,1.223457605E-1
8.062805409E0,1.355154067E-1
8.083639532E0,1.484384239E-1
8.104473654E0,1.620499343E-1
8.125307777E0,1.760400981E-1
8.146141899E0,1.908339560E-1
8.166976022E0,2.060990334E-1
8.187810144E0,2.207095027E-1
8.208644267E0,2.343631685E-1
8.229478389E0,2.466937304E-1
8.250312512E0,2.579518557E-1
8.271146634E0,2.682602108E-1
8.291980757E0,2.774854898E-1
8.312814879E0,2.858912945E-1
8.333649002E0,2.933386564E-1
8.354483124E0,3.003998101E-1
8.375317247E0,3.072429299E-1
8.396151369E0,3.135115504E-1
8.416985492E0,3.192214966E-1
8.437819614E0,3.241859972E-1
8.458653737E0,3.305821121E-1
8.479487859E0,3.383396864E-1
8.500321982E0,3.419174552E-1
8.521156104E0,3.395880461E-1
8.541990227E0,3.347182870E-1
8.562824349E0,3.295068145E-1
8.583658472E0,3.228622675E-1
8.604492594E0,3.128477931E-1
8.625326717E0,3.012501001E-1
8.646160839E0,2.903742194E-1
8.666994962E0,2.797940373E-1
8.687829084E0,2.687779665E-1
8.708663207E0,2.562198043E-1
8.729497329E0,2.424975932E-1
8.750331452E0,2.295549959E-1
8.771165574E0,2.176840305E-1
8.791999697E0,2.060228437E-1
8.812833819E0,1.935480535E-1
8.833667942E0,1.810474992E-1
8.854502064E0,1.696790457E-1
8.875336187E0,1.582687497E-1
8.896170309E0,1.467818767E-1
8.917004432E0,1.357351840E-1
8.937838554E0,1.247055382E-1
8.958672677E0,1.145357341E-1
8.979506799E0,1.057236493E-1
9.000340922E0,9.730933607E-2
9.021175045E0,8.871746063E-2
9.042009167E0,8.088889718E-2
9.062843290E0,7.449942827E-2
9.083677412E0,6.869712472E-2
9.104511535E0,6.307878345E-2
9.125345657E0,5.753135681E-2
9.146179780E0,5.148822069E-2
9.167013902E0,4.464070126E-2
9.187848025E0,3.666592389E-2
9.208682147E0,2.820689045E-2
9.229516270E0,2.011215314E-2
9.250350392E0,1.133410633E-2
9.271184515E0,1.887463266E-3
9.292018637E0,-7.257689722E-3
9.312852760E0,-1.700513437E-2
9.333686882E0,-2.803856134E-2
9.354521005E0,-4.047535360E-2
9.375355127E0,-5.323421583E-2
9.396189250E0,-6.513608992E-2
9.417023372E0,-7.776808739E-2
9.437857495E0,-9.136934578E-2
9.458691617E0,-1.045483202E-1
9.479525740E0,-1.174872220E-1
9.500359862E0,-1.308911443E-1
9.521193985E0,-1.453058720E-1
9.542028107E0,-1.602679193E-1
9.562862230E0,-1.745883822E-1
9.583696352E0,-1.881304383E-1
9.604530475E0,-2.011316717E-1
9.625364597E0,-2.128569186E-1
9.646198720E0,-2.241111100E-1
9.667032842E0,-2.362412512E-1
9.687866965E0,-2.472922206E-1
9.708701087E0,-2.565472722E-1
9.729535210E0,-2.662852705E-1
9.750369332E0,-2.772056162E-1
9.771203455E0,-2.872225046E-1
9.792037577E0,-2.945957482E-1
9.812871700E0,-3.007045090E-1
9.833705822E0,-3.063538969E-1
9.854539945E0,-3.108875155E-1
9.875374067E0,-3.139062524E-1
9.896208190E0,-3.146771193E-1
9.917042312E0,-3.145963550E-1
9.937876435E0,-3.153008223E-1
9.958710557E0,-3.153827786E-1
9.979544680E0,-3.134732544E-1